302 -8.54405e-11 1.97834e-11 -1.48184e-12 1 0.0605672 0.0955226
306 9.92775e-11 -2.44105e-11 1.97094e-12 1 0.0628456 0.104364
310 -4.51087e-12 1.15151e-12 -9.90065e-14 1 0.0647818 0.112179
314 6.25957e-11 -1.63505e-11 1.40412e-12 1 0.0664907 0.119093
318 -2.1215e-11 5.83182e-12 -5.37848e-13 1 0.068226 0.126929
322 2.17014e-12 -7.71118e-13 8.3376e-14 1 0.0700701 0.13664
326 1.01798e-11 -3.24803e-12 3.38587e-13 1 0.072049 0.149153
330 -0.0650435 0.0279737 -0.00402572 1.00014 0.0741055 0.165099
334 -0.828596 0.403784 -0.0659235 1.00214 0.0759989 0.182706
338 -1.98689 1.05402 -0.185861 1.00593 0.0778331 0.203741
342 -2.67622 1.55326 -0.296448 1.00924 0.0795952 0.229052
346 -2.70948 1.70755 -0.350762 1.01051 0.0812432 0.258627
350 -2.45018 1.67381 -0.368867 1.01036 0.0827039 0.289849
354 -2.47597 1.77776 -0.410406 1.01152 0.0836444 0.306261
358 -3.14272 2.32167 -0.55174 1.01582 0.0843634 0.319297
362 -2.84129 2.18875 -0.541803 1.01565 0.0849622 0.335983
366 -2.65022 2.14298 -0.555511 1.01569 0.0854511 0.358155
370 -2.63976 2.2232 -0.600082 1.01685 0.0857523 0.376342
374 -3.64481 2.98325 -0.79325 1.02511 0.0854209 0.359662
378 -3.24727 2.60858 -0.689539 1.02385 0.0850841 0.346855
382 -3.95058 3.22469 -0.871 1.03065 0.0847473 0.353091
386 -3.6329 3.10245 -0.876022 1.02991 0.0841351 0.375561
390 -3.06076 2.64784 -0.76138 1.02599 0.0827448 0.381796
394 -4.0565 3.4898 -1.0085 1.03563 0.0823423 0.377271
398 -2.93967 2.63507 -0.793085 1.02773 0.0821977 0.397371
402 -1.98813 1.85946 -0.576486 1.018 0.0793932 0.424798
406 -1.81416 1.72824 -0.537766 1.01399 0.0749538 0.444279
410 -1.75326 1.67371 -0.521052 1.01284 0.0728871 0.448318
414 -2.06436 1.92104 -0.583305 1.01373 0.0698232 0.438341
418 -2.63733 2.36161 -0.694775 1.01691 0.0678264 0.419078
422 -3.16821 2.70416 -0.764433 1.0199 0.0663794 0.395591
426 -3.70993 2.99931 -0.806208 1.02209 0.0649288 0.37167
430 -5.30422 4.05232 -1.02919 1.0282 0.0628811 0.349644
434 -5.58059 4.00979 -0.96312 1.02738 0.0612557 0.324855
438 -6.82198 4.50591 -1.01333 1.03097 0.0604125 0.290646
442 -8.4827 5.14635 -1.09342 1.0359 0.0603841 0.25812
446 -12.0256 6.71582 -1.35695 1.04713 0.060919 0.228282
450 -16.3548 8.29625 -1.58384 1.05724 0.0613777 0.197971
454 -19.4442 9.46903 -1.77182 1.06525 0.0617581 0.187442
458 -23.5077 11.0266 -2.03724 1.07585 0.0618671 0.179209
462 -31.3485 13.9997 -2.53916 1.09523 0.0618676 0.171125
466 -39.6532 16.5888 -2.94023 1.11138 0.0620553 0.162431
470 -47.237 18.1271 -3.13084 1.12086 0.0629212 0.153516
474 -61.9797 20.929 -3.42093 1.13429 0.0642463 0.142946
478 -100.813 28.5332 -4.08425 1.15849 0.0655465 0.130641
482 -184.701 44.9853 -5.33116 1.1952 0.066407 0.120043
486 -385.159 85.5965 -8.40147 1.27893 0.0667753 0.110861
490 -1060.97 224.55 -18.1489 1.51321 0.0670249 0.100849
494 -9014.37 1944.53 -142.74 4.53724 0.0681628 0.0889275
498 -585240 127377 -9242.29 224.533 0.0696152 0.077396
502 -294973 60577.8 -4127.43 94.2225 0.0651885 0.0707355
506 15648.8 -3001.56 198.358 -3.54875 0.0535691 0.0687744
510 4127.07 -812.436 56.7475 -0.411163 0.0437674 0.0676811
514 2780.61 -537.167 37.0378 0.0817796 0.0365425 0.0665403
518 2203.46 -434.492 30.6724 0.215888 0.033725 0.0683711
522 1735.36 -348.171 25.007 0.3472 0.0321723 0.0701778
526 1535.58 -311.093 22.6297 0.398845 0.0306914 0.0708781
530 1348.88 -273.046 19.8283 0.471975 0.0289547 0.0718679
534 1282.79 -259.346 18.7956 0.498275 0.0273078 0.0728622
538 1229.32 -245.865 17.5706 0.535944 0.0256497 0.0737734
542 1242.55 -244.393 17.1152 0.555446 0.0237988 0.0743199
546 1263.19 -241.523 16.3567 0.587992 0.0217436 0.0743223
550 1344.43 -248.081 16.1344 0.608386 0.0195888 0.0737104
554 1332.17 -242.565 15.4939 0.630162 0.0182967 0.0742088
558 1343.98 -243.194 15.382 0.635646 0.017254 0.0750231
562 1316.57 -236.273 14.7655 0.653996 0.0163256 0.0755376
566 1373.57 -241.233 14.7216 0.662192 0.0153185 0.0747991
570 1553.34 -259.464 15.0463 0.670621 0.0140185 0.0717103
574 1762.03 -277.24 15.0917 0.68898 0.012563 0.0685172
578 2320.52 -329.203 16.1559 0.697999 0.0109504 0.0622383
582 3148.73 -397.206 17.2785 0.712164 0.00925281 0.0561421
586 4518.02 -503.859 19.29 0.715296 0.00767883 0.0505154
590 7109.86 -690.896 23.0366 0.700958 0.00638031 0.0443985
594 10146.9 -864.221 25.0553 0.715897 0.00523843 0.0397701
598 17278.3 -1217.6 29.0322 0.727341 0.00410712 0.0334631
602 27338.7 -1639.26 33.1731 0.73389 0.00339588 0.0287063
606 35748.4 -1939.35 35.4601 0.742122 0.00302639 0.0260857
610 38267 -2030.56 36.2103 0.743031 0.00289514 0.0256672
614 41304.6 -2142.13 37.308 0.741059 0.00279836 0.0251404
618 44353.3 -2227.59 37.5049 0.748377 0.0026801 0.0244321
622 48037.7 -2326.72 37.71 0.756553 0.0025596 0.023638
626 53992.7 -2521.3 39.3685 0.75484 0.00244484 0.0228282
630 59988.6 -2700.87 40.6218 0.756223 0.00233541 0.0220514
634 67747.6 -2932.75 42.3624 0.755757 0.00222448 0.021251
638 77879.7 -3219.94 44.3259 0.756512 0.00209154 0.0203718
642 87790.6 -3504.77 46.4759 0.754158 0.00198512 0.0197511
646 98050.9 -3802.2 48.8966 0.749125 0.00189936 0.0192422
650 115645 -4267.94 52.2062 0.745013 0.00179251 0.0183376
654 149535 -5100.4 57.5918 0.740066 0.00163514 0.0169844
658 198727 -6191.09 63.8048 0.736856 0.00148034 0.0155362
662 237479 -6845.93 65.1945 0.752157 0.00136847 0.0143954
666 279480 -7632.96 68.9185 0.751464 0.00129788 0.0136227
670 312673 -8226.5 71.5489 0.751546 0.00124762 0.0131227
674 326966 -8486.58 72.5255 0.753178 0.001203 0.0130233
678 352421 -8930.15 74.2093 0.755052 0.00114829 0.0127877
682 385292 -9510.49 76.6371 0.755382 0.00108965 0.0125402
686 447371 -10767 84.2823 0.73863 0.00102822 0.0123005
690 509116 -11857.8 89.3485 0.733973 0.000961662 0.0119969
694 600592 -13196.8 93.3412 0.740151 0.000884442 0.011395
698 747045 -15180.2 98.8206 0.7479 0.000798684 0.0106025
702 1.00154e+06 -18625.7 110.58 0.74316 0.000714388 0.0097512
